Frequency,Nominal,Min,Max
4,1.5187800097683826e-7,1.3990378152351904e-7,1.6470377779430578e-7
4.093171969123016,1.5332870261962336e-7,1.4082131185120557e-7,1.667587748661971e-7
4.1885141922035976,1.5483143958506765e-7,1.4176769466216544e-7,1.6889587166172362e-7
4.286077220950425,1.563872586727434e-7,1.4274313320792197e-7,1.7111764445610508e-7
4.385912784572739,1.5799713696690637e-7,1.4374775765628654e-7,1.7342666470919407e-7
4.4880738172078525,1.5966196889616735e-7,1.4478161727857626e-7,1.7582548460761364e-7
4.5926144859875295,1.613825520637461e-7,1.458446723029452e-7,1.7831662024227328e-7
4.699590219758116,1.631595718032047e-7,1.4693678547851157e-7,1.809025321504233e-7
4.80905773846965,1.6499358443000088e-7,1.480577134090877e-7,1.8358560293933876e-7
4.921075083249525,1.668849991799717e-7,1.49207097731508e-7,1.8636811170196426e-7
5.035701647176667,1.6883405885292272e-7,1.5038445623189514e-7,1.8925220493563845e-7
5.152998206772534,1.7084081921386514e-7,1.5158917401373013e-7,1.9223986368604847e-7
5.273026954225627,1.7290512724717553e-7,1.528204948542457e-7,1.9533286666313768e-7
5.395851530366613,1.7502659841105195e-7,1.5407751291031482e-7,1.9853274911766054e-7
5.521537058411538,1.7720459310200088e-7,1.553591649613542e-7,2.0184075733092845e-7
5.650150178491016,1.7943819261242806e-7,1.5666422340441902e-7,2.0525779866100766e-7
5.781759082983708,1.8172617494906565e-7,1.5799129024497725e-7,2.087843872116819e-7
5.916433552672827,1.8406699097583658e-7,1.59338792355039e-7,2.1242058535148617e-7
6.05424499374483,1.864587414510219e-7,1.6070497829730206e-7,2.1616594151455817e-7
6.195266475649922,1.8889915564356865e-7,1.6208791703846075e-7,2.200194249677271e-7
6.339572769844451,1.913855723342624e-7,1.6348549889527101e-7,2.2397935853254547e-7
6.4872403894357165,1.939149241301106e-7,1.6489543907154035e-7,2.280433506078484e-7
6.638347629750239,1.964837261389769e-7,1.663152841509298e-7,2.3220822824529893e-7
6.792974609846974,1.9908807015882707e-7,1.6774242190712428e-7,2.364699734795744e-7
6.951203314997498,2.017236256227357e-7,1.6917409477730734e-7,2.408236655920858e-7
7.113117640155687,2.043856485961868e-7,1.706074173147701e-7,2.4526343246981945e-7
7.278803434439928,2.0706900013486764e-7,1.72039397889881e-7,2.497824146767319e-7
7.448348546651464,2.097681752659296e-7,1.7346696484390642e-7,2.5437274624102775e-7
7.621842871852983,2.1247734374019303e-7,1.7488699721626587e-7,2.5902555642367316e-7
7.799378399032175,2.1519040350465764e-7,1.7629636006240758e-7,2.637309968078685e-7
7.981049259875512,2.1790104755381828e-7,1.776919442573748e-7,2.684782978653833e-7
8.16695177867811,2.2060284442842116e-7,1.7907071054107166e-7,2.732558586412217e-7
8.35718452341615,2.2328933214055106e-7,1.8042973740841452e-7,2.7805137228604634e-7
8.55184835800892,2.2595412472032514e-7,1.8176627228528673e-7,2.828519888040028e-7
8.751046495798201,2.2859102991589176e-7,1.830777852650766e-7,2.87644514545287e-7
8.954884554273349,2.3119417585702645e-7,1.8436202451703069e-7,2.9241564566725184e-7
9.163470611071082,2.3375814374325713e-7,1.85617072323694e-7,2.97152230068831e-7
9.376915261279677,2.3627810287578844e-7,1.8684140056734377e-7,3.018415492731086e-7
9.59533167607795,2.38749943657034e-7,1.8803392437085396e-7,3.0647160854060816e-7
9.81883566274011,2.4117040356934295e-7,1.8919405251171542e-7,3.110314203250507e-7
10.047545726038308,2.4353718064583897e-7,1.9032173317159714e-7,3.155112632329641e-7
10.281583131075442,2.458490285793805e-7,1.9141749355738057e-7,3.199028961055642e-7
10.521071967581513,2.481058273810575e-7,1.9199682471582195e-7,3.2419970485023276e-7
10.766139215707648,2.503086233763295e-7,1.9209152351643463e-7,3.283967582836995e-7
11.01691481335265,2.524596322696029e-7,1.921229267590519e-7,3.324907484958868e-7
11.273531725057799,2.545621989476567e-7,1.9209832583954445e-7,3.370870339779074e-7
11.536126012506406,2.566207075388857e-7,1.9202576555341337e-7,3.420951763074036e-7
11.804836906665525,2.586404348948232e-7,1.9191392560196636e-7,3.470636502044208e-7
12.079806881608047,2.6062734000510915e-7,1.917719890417125e-7,3.5283502653852813e-7
12.361181730054343,2.6258778080069894e-7,1.916094988860734e-7,3.5869642956540663e-7
12.649110640673497,2.645281482788646e-7,1.9143620327138172e-7,3.6455172240433427e-7
12.94374627718511,2.6645440589599516e-7,1.9126188853268573e-7,3.7038012816965615e-7
13.245244859303622,2.6837151982429654e-7,1.9109619821072942e-7,3.7615366732941773e-7
13.55376624556808,2.7028276322823035e-7,1.909484344446193e-7,3.818349948625634e-7
13.869474018101242,2.721888757168885e-7,1.9082733641503645e-7,3.873749070698671e-7
14.192535569342994,2.740870584868183e-7,1.9074082852203775e-7,3.927095971354091e-7
14.523122190804028,2.759697878588262e-7,1.9069572886673392e-7,3.9775782782346424e-7
14.861409163886874,2.7782343716172613e-7,1.9069740646477415e-7,4.024183172890581e-7
15.20757585282242,2.7962671240667154e-7,1.907493736484714e-7,4.06619469409471e-7
15.561805799771195,2.8134893514439626e-7,1.9085279865917658e-7,4.120864148799789e-7
15.924286822139859,2.829482513249634e-7,1.910059230706084e-7,4.1715754509648997e-7
16.295211112164477,2.84369912799989e-7,1.91203370339626e-7,4.216776902380138e-7
16.674775338813383,2.8554487101646017e-7,1.9143533685099674e-7,4.254621394842537e-7
17.063180752063673,2.863890370332911e-7,1.910925368607285e-7,4.2830005160168574e-7
17.460633289606605,2.868036828202305e-7,1.8964959535472453e-7,4.338872225429372e-7
17.867343686038488,2.8667755151715187e-7,1.8788498902110005e-7,4.392095306256865e-7
18.283527584594964,2.8589125120744685e-7,1.857485926480852e-7,4.4370054363524093e-7
18.709405651487888,2.8432435169534677e-7,1.831933788303957e-7,4.4708707574327903e-7
19.145203692905493,2.8186521594197933e-7,1.8017950788056307e-7,4.4908052259295825e-7
19.591152774737807,2.784229587723679e-7,1.766788026652201e-7,4.4940151725164506e-7
20.04748934509085,2.7394012834786454e-7,1.7267906627590289e-7,4.478124252175605e-7
20.51445535965455,2.684039889159203e-7,1.6518659866898536e-7,4.4415353910602316e-7
20.99229840999086,2.618539840101611e-7,1.5671916242574273e-7,4.3837597837067565e-7
21.481271854810064,2.543833637645054e-7,1.482330157738425e-7,4.305630800479489e-7
21.981634954304933,2.461341051585175e-7,1.398647782720603e-7,4.240011208825085e-7
22.49365300761391,2.372858214032739e-7,1.3172923781627987e-7,4.1884750366640965e-7
23.017597493486225,2.2804077914672195e-7,1.239168174944029e-7,4.122983863105465e-7
23.553746214223505,2.1860789216946922e-7,1.1649383336488762e-7,4.0967054557280397e-7
24.102383442974254,2.0918842840352258e-7,1.0950468823012122e-7,4.064443873966131e-7
24.66380007445923,1.9996533656450847e-7,1.0297515303527172e-7,4.0254528279599005e-7
25.23829377920767,1.910969878895391e-7,9.691604770736536e-8,3.982784105785119e-7
25.826169161386158,1.8271514578711148e-7,9.132684602091282e-8,3.940125828031152e-7
26.427737920303777,1.7492635281425414e-7,8.619892818508586e-8,3.9016244229362446e-7
27.043319015679206,1.6781568832024638e-7,8.151835966434653e-8,3.871698691644451e-7
27.673238836757392,1.6145189664405701e-7,7.726817957141069e-8,3.8548530483102064e-7
28.317831375365447,1.5589306637318194e-7,7.343024405654305e-8,3.855468815195601e-7
28.97743840299953,1.5119222084881725e-7,6.998670089437992e-8,3.8775276232178393e-7
29.652409652036628,1.4740225469663985e-7,6.69211816197554e-8,3.9242305844229466e-7
30.343103001167275,1.4457954286524963e-7,6.421979482327543e-8,3.997590527476391e-7
31.04988466514759,1.4278521438944746e-7,6.187199257644577e-8,4.0983985253009997e-7
31.773129388971178,1.4208259969339183e-7,5.987136116029067e-8,4.227509509654133e-7
32.51322064656389,1.4252920880704344e-7,5.8216351912307e-8,4.4137057170395484e-7
33.27055084410676,1.4416329268672393e-7,5.691090608368546e-8,4.73323160562456e-7
34.04552152809497,1.4699183276544604e-7,5.5964820015080866e-8,5.151891189769274e-7
34.838543598243135,1.51002345292979e-7,5.539352428071353e-8,5.732713238192841e-7
35.650037525349724,1.5624085748921964e-7,5.521672640501512e-8,6.662650077707831e-7
36.48043357423629,1.629963692360739e-7,5.545524330383631e-8,7.51189982787098e-7
37.330172031879535,1.720690571464085e-7,5.442636272556795e-8,7.263374318328566e-7
38.19970344085733,1.8496362812743837e-7,5.286933197273694e-8,6.332239353897269e-7
39.08948883823231,2.0348003689466732e-7,5.2098919041907894e-8,6.119967842735363e-7
39.99999999999988,2.2634933466617162e-7,5.220801632131751e-8,4.7198719108050583e-7
40.93171969123004,2.3696423099513302e-7,5.336393441152933e-8,4.760603143449905e-7
41.88514192203586,2.0535272411087063e-7,4.908226972430089e-8,4.6028478837836734e-7
42.86077220950413,1.4952004547188304e-7,3.930163251915689e-8,3.486596781079483e-7
43.859127845727265,1.0460643017041508e-7,3.2668414038474835e-8,3.3623821383704984e-7
44.880738172078395,7.525096254576377e-8,2.8091352358317892e-8,2.717771412855962e-7
45.926144859875166,5.647975436583579e-8,2.4890550112775485e-8,2.3613738818979303e-7
46.99590219758103,4.4217507478997176e-8,2.2625776899793956e-8,2.0500284299771837e-7
48.09057738469636,3.600394568866956e-8,2.1003906154210733e-8,1.49387070090368e-7
49.2107508324951,3.038979146496954e-8,1.9826525157027283e-8,1.0450540567416465e-7
50.35701647176652,2.6493227048884797e-8,1.8958242438469353e-8,7.515590812273629e-8
51.529982067725186,2.375508624301077e-8,1.8306316557940434e-8,5.6392835890725426e-8
52.7302695422561,2.1808400455840797e-8,1.7807046381917144e-8,4.4140634815081475e-8
53.958515303665955,2.0406818466432252e-8,1.7416527388614284e-8,3.59371329712356e-8
55.2153705841152,1.938292771020531e-8,1.7104354032956294e-8,3.03321159013229e-8
56.50150178490997,1.862230809733921e-8,1.6849338033870356e-8,2.6443452050434617e-8
57.81759082983689,1.804651937351527e-8,1.663660405405426e-8,2.3711950889681534e-8
59.16433552672808,1.7601629828359512e-8,1.6455620829341473e-8,2.17707463367868e-8
60.542449937448104,1.725040924389854e-8,1.629886428812734e-8,2.0373641888985962e-8
61.952664756499026,1.696701592677998e-8,1.616090653163559e-8,1.935339331600645e-8
63.395727698444304,1.6733390350911735e-8,1.6037791833066698e-8,1.859574054496969e-8
64.87240389435695,1.6536811293623e-8,1.5926606576806486e-8,1.802238356898345e-8
66.38347629750217,1.6368239037018028e-8,1.5825180816234997e-8,1.7579507057133475e-8
67.92974609846951,1.6221189253879787e-8,1.5731879658277004e-8,1.7229973824423763e-8
69.51203314997474,1.6090964249379715e-8,1.5645456348481205e-8,1.694801472036488e-8
71.13117640155663,1.597412516857762e-8,1.5564948031551138e-8,1.671562590270804e-8
72.78803434439905,1.586812725287917e-8,1.5489601240727872e-8,1.65201285094981e-8
74.48348546651441,1.577106597769044e-8,1.5418818247365135e-8,1.6352514918275623e-8
76.2184287185296,1.5681499052945624e-8,1.5352118153185867e-8,1.620632511018853e-8
77.99378399032152,1.5598320677326086e-8,1.5289108475470973e-8,1.607687984449683e-8
79.81049259875488,1.5520672040054112e-8,1.52294642519959e-8,1.5960754338833796e-8
81.66951778678086,1.5447877149567256e-8,1.5172912571081877e-8,1.5855414632371606e-8
83.57184523416126,1.537939648712724e-8,1.5119221040987516e-8,1.5758964548579724e-8
85.51848358008895,1.531479329549692e-8,1.5068189137749087e-8,1.5669968308526047e-8
87.51046495798177,1.5253708886723573e-8,1.50196416690944e-8,1.558732523964959e-8
89.54884554273323,1.5195844431832133e-8,1.4973423803181992e-8,1.5510180614973047e-8
91.63470611071055,1.5140947439800046e-8,1.4929397261196488e-8,1.543786173273944e-8
93.7691526127965,1.5088801650684274e-8,1.4887437380464778e-8,1.536983175721256e-8
95.95331676077923,1.5039219429932868e-8,1.4847430832308413e-8,1.5305656147465363e-8
98.18835662740081,1.4992036006076467e-8,1.4809273835045515e-8,1.524497807044665e-8
100.47545726038278,1.4947105074952015e-8,1.4772870743505099e-8,1.5187500270122588e-8
102.81583131075412,1.4904295422755474e-8,1.4738132926414425e-8,1.513297160667369e-8
105.21071967581483,1.4863488312952833e-8,1.470497786510797e-8,1.508117699548479e-8
107.66139215707616,1.4824575449056946e-8,1.4673328423350045e-8,1.5031929836554457e-8
110.16914813352618,1.4787457373929142e-8,1.4643112250214684e-8,1.498506627918256e-8
112.73531725057767,1.4752042201795892e-8,1.4614261287042568e-8,1.4940440847067624e-8
115.36126012506374,1.4718244605256744e-8,1.4586711356304347e-8,1.4897923077588308e-8
118.04836906665491,1.4685984998807141e-8,1.4560401815331224e-8,1.4857394921404372e-8
120.79806881608012,1.4655188874671857e-8,1.453527526175689e-8,1.4818748715216745e-8
123.61181730054308,1.4625786257375844e-8,1.4511277280466265e-8,1.4781885588973169e-8
126.49110640673462,1.4597711251436084e-8,1.4488356224098097e-8,1.4746714204185383e-8
129.43746277185073,1.4570901662538287e-8,1.446646302087415e-8,1.4713149745995408e-8
132.45244859303585,1.4545298677077348e-8,1.4445551004854665e-8,1.468111311079088e-8
135.53766245568042,1.4520846588363399e-8,1.4425575764745051e-8,1.4650530245376165e-8
138.69474018101204,1.4497492560401032e-8,1.4406495008173544e-8,1.4621331604288985e-8
141.92535569342954,1.4475186422141086e-8,1.4388268438978439e-8,1.459345169977116e-8
145.23122190803988,1.4453880486633223e-8,1.4370857645527359e-8,1.4566828724854768e-8
148.61409163886833,1.4433529390685454e-8,1.4354225998470326e-8,1.4541404234517927e-8
152.0757585282238,1.4414089951548158e-8,1.4338338556628058e-8,1.4517122873270854e-8
155.61805799771153,1.4395521037848089e-8,1.4323161979953365e-8,1.4493932140126e-8
159.24286822139817,1.4377783452550025e-8,1.4308664448691805e-8,1.447178218388763e-8
162.95211112164435,1.4360839826155877e-8,1.4294815588017841e-8,1.445062562321774e-8
166.7477533881334,1.4344654518691212e-8,1.4281586397543359e-8,1.4430417387106866e-8
170.63180752063627,1.4329193529297261e-8,1.4268949185192035e-8,1.4411114572285311e-8
174.60633289606557,1.4314424412459452e-8,1.4256877505011683e-8,1.439267631481451e-8
178.6734368603844,1.4300316200072738e-8,1.424534609856038e-8,1.4375063673647535e-8
182.83527584594916,1.428683932867967e-8,1.4234330839554328e-8,1.4358239524377754e-8
187.0940565148784,1.4273965571325539e-8,1.4223808681507736e-8,1.4342168461732867e-8
191.45203692905443,1.4261667973563388e-8,1.421375760813092e-8,1.432681670963846e-8
195.91152774737753,1.4249920793212131e-8,1.4204156586281368e-8,1.4312152037886859e-8
200.47489345090793,1.4238699443529476e-8,1.4194985521287258e-8,1.4298143684615527e-8
205.14455359654494,1.42279804395087e-8,1.4186225214483229e-8,1.4284762283934093e-8
209.922984099908,1.4217741347047076e-8,1.4177857322815405e-8,1.4271979798147268e-8
214.81271854810004,1.420796073476651e-8,1.4169864320387213e-8,1.4259769454108265e-8
219.81634954304874,1.4198618128293317e-8,1.4162229461829992e-8,1.4248105683308114e-8
224.93653007613852,1.4189693966826608e-8,1.4154936747393166e-8,1.4236964065363951e-8
230.17597493486164,1.4181169561843875e-8,1.4147970889657553e-8,1.4226321274616624e-8
235.53746214223443,1.4173027057807718e-8,1.4141317281783935e-8,1.4216155029586629e-8
241.0238344297419,1.416524939475174e-8,1.4134961967215406e-8,1.4206444045069749e-8
246.63800074459164,1.4157820272634815e-8,1.412889161075843e-8,1.4197167986680096e-8
252.38293779207604,1.4150724117362988e-8,1.4123093470972848e-8,1.4188307427671072e-8
258.2616916138609,1.4143946048386861e-8,1.4117555373805852e-8,1.417984380788292e-8
264.277379203037,1.4137471847789856e-8,1.411226568740918e-8,1.4171759394681856e-8
270.4331901567913,1.4131287930789055e-8,1.4107213298082715e-8,1.4164037245769e-8
276.73238836757315,1.4125381317576326e-8,1.4102387587290892e-8,1.4156661173748823e-8
283.1783137536537,1.4119739606432371e-8,1.4097778409701826e-8,1.4149615712356838e-8
289.7743840299945,1.4114350948050936e-8,1.4093376072201527e-8,1.4142886084254698e-8
296.52409652036545,1.4109204021014374e-8,1.4089171313838455e-8,1.4136458170308354e-8
303.4310300116719,1.410428800836557e-8,1.4085155286655897e-8,1.413031848027146e-8
310.49884665147505,1.4099592575224342e-8,1.4081319537372116e-8,1.4124454124801901e-8
317.7312938897109,1.4095107847399564e-8,1.4077655989869764e-8,1.4118852788744348e-8
325.132206465638,1.4090824390950913e-8,1.4074156928458713e-8,1.4113502705616411e-8
332.7055084410666,1.40867331926567e-8,1.4070814981877417e-8,1.4108392633239795e-8
340.4552152809488,1.408282564134651e-8,1.4067623108000226e-8,1.4103511830461669e-8
348.3854359824304,1.4079093510059552e-8,1.4064574579219248e-8,1.4098850034914645e-8
356.5003752534963,1.4075528938991544e-8,1.4061662968471092e-8,1.4094397441766789e-8
364.80433574236196,1.4072124419194862e-8,1.405888213587982e-8,1.4090144683415769e-8
373.3017203187944,1.4068872776998346e-8,1.4056226215989257e-8,1.4086082810083837e-8
381.99703440857235,1.406576715911481e-8,1.4053689605558573e-8,1.4082203271272492e-8
390.89488838232216,1.4062801018405772e-8,1.4051266951896457e-8,1.407849789803802e-8
399.99999999999784,1.4059968100274394e-8,1.404895314171031e-8,1.407495888605077e-8
409.31719691229944,1.4057262429658887e-8,1.4046743290447825e-8,1.4071578779403181e-8
418.8514192203575,1.4054678298599991e-8,1.4044632732109354e-8,1.4068350455133115e-8
428.6077220950402,1.4052210254357267e-8,1.4042617009510568e-8,1.406526710843061e-8
438.5912784572715,1.4049853088050085e-8,1.4040691864975491e-8,1.4062322238497818e-8
448.8073817207828,1.404760182380031e-8,1.4038853231441251e-8,1.4059509635033252e-8
459.26144859875046,1.404545170835467e-8,1.403709722395636e-8,1.4056823365312697e-8
469.9590219758091,1.4043398201165775e-8,1.4035420131555377e-8,1.4054257761840594e-8
480.90577384696235,1.4041436964911634e-8,1.4033818409493405e-8,1.4051807410546735e-8
492.1075083249497,1.403956385643458e-8,1.4032288671824621e-8,1.4049467139504302e-8
503.5701647176639,1.4037774918081037e-8,1.4030827684309791e-8,1.4047232008146367e-8
