Frequency,Nominal,Min,Max
4,2112828.0983765917,1841406.0577567113,2443120.021384542
4.093171969123016,2046761.3446185924,1781562.1662794428,2369772.5134834386
4.1885141922035976,1982224.0462081805,1723165.4149553983,2298058.7638525744
4.286077220950425,1919194.1561595364,1666195.6638351632,2227953.3873021067
4.385912784572739,1857650.183945084,1610633.090587527,2159431.813045978
4.4880738172078525,1797571.1415140275,1556458.1399164933,2092470.233457747
4.5926144859875295,1738936.4896365537,1503651.4746818803,2027045.5519422775
4.699590219758116,1681726.0848633456,1452193.9290188272,1963135.33012362
4.80905773846965,1625920.127398844,1402066.463739324,1900717.7345725216
4.921075083249525,1571499.110189619,1353250.124284051,1839771.483316737
5.035701647176667,1518443.7695298896,1305726.0014715914,1780275.7923951433
5.152998206772534,1466735.0374804942,1259475.1952689644,1722210.3227308884
5.273026954225627,1416353.9963897143,1214478.781780136,1665555.127611248
5.395851530366613,1367281.8357900686,1170717.7836185582,1610290.6010690518
5.521537058411538,1319499.8119279903,1128173.1437974023,1556397.4274640623
5.650150178491016,1272989.2101621407,1086825.703236763,1503856.532563435
5.781759082983708,1227731.3104403575,1046656.181950587,1452649.036414864
5.916433552672827,1183707.356037429,1007645.1639405052,1402756.208297626
6.05424499374483,1140898.5257048104,969773.0857865763,1354159.4240234566
6.195266475649922,1099285.9093496532,933020.2288895189,1306840.125841707
6.339572769844451,1058850.487326403,897366.7152843908,1260779.785182237
6.4872403894357165,1019573.1133879598,862792.5069126019,1215959.8684444597
6.638347629750239,981434.5013071555,829277.4082090785,1172361.8060131874
6.792974609846974,944415.2151437796,796801.0718333581,1129966.9646508575
6.951203314997498,908495.6630969401,765343.0073488504,1088756.6233833164
7.113117640155687,873656.0948494503,734882.5926332782,1048711.9529613005
7.278803434439928,839876.6022788495,705399.0877856878,1009813.9989449313
7.448348546651464,807137.1233812014,676871.6512815205,972043.6684220155
7.621842871852983,775417.4492271657,649279.3581170681,935381.7203360144
7.799378399032175,744697.2337470296,622601.219678351,899808.7593645379
7.981049259875512,714956.0061220068,596816.2050666051,865305.23325607
8.16695177867811,686173.1855429526,571903.2636133658,831851.4335013242
8.35718452341615,658328.0980858373,547841.348322058,799427.499187032
8.55184835800892,631399.9954445433,524609.4399799178,768013.4238536701
8.751046495798201,605368.0752571487,502186.5716937404,737589.0651562552
8.954884554273349,580211.5027603403,480551.8536147987,708134.1571076054
9.163470611071082,555909.4335089244,459684.49763228983,679628.3246680086
9.376915261279677,532441.0369025101,439563.8418302112,652051.100433045
9.59533167607795,509785.5202695956,420169.3745193712,625381.9431629212
9.81883566274011,487922.1532696718,401480.75767417625,599600.2578919491
10.047545726038308,466830.2923868454,383477.8496221525,574685.4173556813
10.281583131075442,446489.40530289337,366140.72685298766,550616.7844750268
10.521071967581513,426879.0949537275,349449.7048326802,527373.7356421095
10.766139215707648,407979.12309039175,333385.3577269969,504935.6845603357
11.01691481335265,389769.4331836127,317928.5369566615,483282.1064016688
11.273531725057799,372230.1725294074,303060.388524324,462392.56205666665
11.536126012506406,355341.71343185595,288762.36907027184,442246.7222671789
11.804836906665525,339084.6733577072,275016.26062993373,422824.3914474502
12.079806881608047,323439.93397581193,261804.18408140325,404105.5310163695
12.361181730054343,308388.65901213366,249108.61128544284,386070.2820813102
12.649110640673497,293912.31086831674,236912.37593377143,368698.98733229353
12.94374627718511,279992.6659681161,225198.68313383666,351972.21202361624
13.245244859303622,266611.8288116168,213951.1177698637,335870.7639385022
13.55376624556808,253752.24473174836,203153.65169084826,320375.71225043025
13.869474018101242,241396.7113613268,192790.64978646548,305468.4052124445
14.192535569342994,229528.3888316721,182846.87502178203,291130.48662270245
14.523122190804028,218130.80873573557,173307.49251145293,277343.9110308632
14.861409163886874,207187.88189986622,164158.0727240496,264090.9576651903
15.20757585282242,196683.90501881667,155384.59391767424,251354.24307486127
15.561805799771195,186603.56621862468,146973.44391956402,239116.73249546372
15.924286822139859,176931.94962171602,138911.42137557673,227361.74995839785
16.295211112164477,167654.53899832087,131185.7366110225,216072.98717668196
16.674775338813383,158757.22059832796,123784.01226329584,205234.51125073715
17.063180752063673,150226.28526849338,116694.28387042537,194830.77124809445
17.460633289606605,142048.429971957,109905.00062968406,184846.60372092333
17.867343686038488,134210.75884099668,103405.02657906697,175267.23723488217
18.283527584594964,126700.78391068164,97183.64250470439,166078.29599243548
18.709405651487888,119506.42570169843,91230.54894321432,157265.80264371954
19.145203692905493,112616.01384651965,85535.87073510751,148816.18038869457
19.591152774737807,106018.28798618414,80090.16370114121,140716.2544862374
20.04748934509085,99702.39920774364,74884.42416834264,132953.25329962446
20.51445535965455,93657.91234829943,69910.10228053483,125514.8090243894
20.99229840999086,87874.80956507195,65159.120309330865,118388.95826489202
21.481271854810064,82343.49566832256,60623.89756298254,111564.14265150997
21.981634954304933,77054.80584374485,56297.38400966771,105029.20972302891
22.49365300761391,72000.01656487971,52173.1054398115,98773.41434105104
23.017597493486225,67170.86073044172,48245.223956779,92786.42095838055
23.553746214223505,62559.5483786136,44508.61889348584,87058.30713589955
24.102383442974254,58158.79476135089,40958.99500584113,81579.56879855314
24.66380007445923,53961.85814900625,37593.027089203555,76341.1278491395
25.23829377920767,49962.59053646123,34408.55303291004,71334.34293023933
25.826169161386158,46155.50551165641,31404.830583705272,66551.02435583365
26.427737920303777,42535.869019252685,28582.875966497144,61983.45454709539
27.043319015679206,39099.820708698506,25945.9028771234,57624.41573206558
27.673238836757392,35844.53607638929,23499.873106445848,53467.227248327785
28.317831375365447,32768.442661509325,21254.144175503025,49505.7955779606
28.97743840299953,29871.50676561801,19222.133857069923,45734.68131924448
29.652409652036628,27155.609330242536,17421.783561034285,42149.18875203109
30.343103001167275,24625.027607012365,15875.362647568694,38745.48558493809
31.04988466514759,22287.025967308182,14607.853360338906,35520.76296161535
31.773129388971178,20152.51999058875,13643.046782794336,32473.44881838946
32.51322064656389,18236.6868084852,12997.132135948774,29603.49086721023
33.27055084410676,16559.216711079218,12671.393969630597,26912.727645026338
34.04552152809497,15143.623735850275,12444.156331560183,24405.364167253272
34.838543598243135,14014.7659457445,12106.443157746111,22088.555756675785
35.650037525349724,13193.860162007395,12086.910233024679,19973.06520894447
36.48043357423629,12691.421829139874,11676.666315487739,18073.868960871365
37.330172031879535,12500.69548592833,11373.947640332171,16410.4128471249
38.19970344085733,12595.428136609833,11400.654671146003,15565.621024925
39.08948883823231,12933.915098056594,11713.401005178343,16455.498110808963
39.99999999999988,13467.16667470817,11769.671701914102,17376.406456584118
40.93171969123004,14146.957264034347,11970.576035617858,18311.131871450933
41.88514192203586,14930.961410640311,12375.86576187992,19247.023047659088
42.86077220950413,15784.705832170614,12466.733018444456,20174.880456719387
43.859127845727265,16681.413684091487,12799.436375049052,21088.082233265515
44.880738172078395,17600.89004451626,13325.506212414706,21981.92174725753
45.926144859875166,18528.18120576168,13997.154472778158,22853.114618655436
46.99590219758103,19452.350095315687,14772.397078337463,23699.43450039652
48.09057738469636,20365.47750211169,15617.016579789894,24519.444262784713
49.2107508324951,21261.891317395464,16504.42413602237,25312.29705691367
50.35701647176652,22137.58797827161,17414.561686800032,26077.588388154465
51.529982067725186,22989.80368149883,18332.574578014006,26815.24547460568
52.7302695422561,23816.697920183542,19247.59698756233,27525.44397118068
53.958515303665955,24617.119724783654,20151.760485773415,28208.54489553396
55.2153705841152,25390.4343484969,21039.428618744405,28865.04656774534
56.50150178490997,26136.394080540766,21906.62224838111,29495.54778811907
57.81759082983689,26855.04136253885,22750.59362140095,30100.71948840402
59.16433552672808,27546.63566935164,23569.51201133509,30681.282818029176
60.542449937448104,28211.597982419287,24362.23152266939,31237.992151505274
61.952664756499026,28850.468377388184,25128.118945084763,31771.621884382253
63.395727698444304,29463.873458752707,25866.925446876587,32282.95616412577
64.87240389435695,30052.50124215824,26578.69035850738,32772.780907874076
66.38347629750217,30617.08170986367,27263.66856230584,33241.877611653086
67.92974609846951,31158.37171733234,27922.2753561186,33691.01856973547
69.51203314997474,31677.14325871468,28555.044341784487,34120.96320875206
71.13117640155663,32174.174341046535,29162.595092627555,34532.45530631263
72.78803434439905,32650.24189593297,29745.608216568417,34926.220913625475
74.48348546651441,33106.1162907326,30304.806052300322,35302.966839816996
76.2184287185296,33542.5571011864,30840.937685511693,35663.37958519649
77.99378399032152,33960.30988290715,31354.767299765786,36008.124633693784
79.81049259875488,34360.10373653812,31847.06511710106,36337.84603267653
81.66951778678086,34742.64950532443,32318.600361156656,36653.166202499466
83.57184523416126,35108.63847769047,32770.13580796516,36954.68592932397
85.51848358008895,35458.74149365672,33202.423588795406,37242.9845036376
87.51046495798177,35793.60837439254,33616.201984373896,37518.619974003836
89.54884554273323,36113.86761024896,34012.193006801244,37782.12949126859
91.63470611071055,36420.12625526995,34391.10060910257,38034.02972303873
93.7691526127965,36712.9699862089,34753.609395956526,38274.81732196029
95.95331676077923,36992.963292065455,35100.38373519782,38504.96943433707
98.18835662740081,37260.6497665496,35432.06719000085,38724.94423808627
100.47545726038278,37516.55248101653,35749.282207581455,38935.18150103458
102.81583131075412,37761.17441956205,36052.63001281353,39136.103152203665
105.21071967581483,37994.998961326986,36342.690665110546,39328.11386008668
107.66139215707616,38218.49039779037,36620.02324485026,39511.6016130322
110.16914813352618,38432.09447505951,36885.16614196326,39686.93829777307
112.73531725057767,38636.23895298936,37138.63742440431,39854.48027289915
115.36126012506374,38831.33417446028,37380.93526833903,40014.56893470482
118.04836906665491,39017.77363937594,37612.53843521129,40167.53127336619
120.79806881608012,39195.93457895912,37833.90678356688,40313.680417838434
123.61181730054308,39366.178526763855,38045.48180572009,40453.31616822541
126.49110640673462,39528.85188351765,38247.68718115915,40586.72551467522
129.43746277185073,39684.286473485154,38440.929340072274,40714.18314210492
132.45244859303585,39832.80009052351,38625.59803159815,40835.95192026588
135.53766245568042,39974.69703239785,38802.06689241312,40952.28337883346
138.69474018101204,40110.26862225653,38970.69401210099,41063.41816734771
141.92535569342954,40239.793716440945,39131.82249244175,41169.58649994938
145.23122190803988,40363.53919803338,39285.780998327486,41271.008584952935
148.61409163886833,40481.760455736614,39432.884298489844,41367.89503937762
152.0757585282238,40594.70184783605,39573.433794617595,41460.44728862231
155.61805799771153,40702.597151125636,39707.718037772174,41548.85795152231
159.24286822139817,40805.66999478647,39836.013231281075,41633.31121106809
162.95211112164435,40904.134279294754,39958.583719516835,41713.983171098684
166.7477533881334,40998.1945805084,40075.68246215714,41791.042199308715
170.63180752063627,41088.04653913971,40187.55149367815,41864.64925692626
174.60633289606557,41173.87723586915,40294.422367962135,41934.95821543395
178.6734368603844,41255.86555239211,40396.51658800723,42002.116160714366
182.83527584594916,41334.18251872054,40494.046020814734,42066.26368500735
187.0940565148784,41408.99164708321,40587.21329760083,42127.53516706934
191.45203692905443,41480.44925278579,40676.21219953758,42186.05904092505
195.91152774737753,41548.70476240319,40761.22802927532,42241.95805359982
200.47489345090793,41613.90100968508,40842.43796853501,42295.3495122178
205.14455359654494,41676.17451955946,40920.01142208891,42346.34552084491
209.922984099908,41735.65578062094,40994.11034847003,42395.05320745042
214.81271854810004,41792.46950648999,41064.88957776716,42441.574941352505
219.81634954304874,41846.73488642589,41132.49711687488,42486.00854150603
224.93653007613852,41898.565825572754,41197.074442575,42528.44747598172
230.17597493486164,41948.07117521154,41258.75678283061,42568.981052976305
235.53746214223443,41995.354953384645,41317.67338667593,42607.69460368526
241.0238344297419,42040.51655625223,41373.94778308365,42644.66965735816
246.63800074459164,42083.65096053067,41427.698029189385,42679.98410884854
252.38293779207604,42124.848917355244,41479.03694824855,42713.71237895944
258.2616916138609,42164.19713789979,41528.07235769489,42745.9255678761
264.277379203037,42201.77847107661,41574.90728766407,42776.69160196747
270.4331901567913,42237.67207363033,41619.640190337326,42806.075374228756
276.73238836757315,42271.95357292978,41662.36514045279,42834.138878627135
283.1783137536537,42304.6952227518,41703.17202732296,42860.9413386036
289.7743840299945,42335.9660523419,41742.14673868786,42886.53932997494
296.52409652036545,42365.83200902604,41779.371336724136,42910.986898469964
303.4310300116719,42394.35609463907,41814.92422652068,42934.33567212615
310.49884665147505,42421.59849602544,41848.88031732192,42956.63496876375
317.7312938897109,42447.616709858696,41881.311176830066,42977.931898746
325.132206465638,42472.46566201722,41912.285178847975,42998.27146322604
332.7055084410666,42496.19782174446,41941.86764453509,43017.696648073426
340.4552152809488,42518.86331081398,41970.12097753844,43036.248513664934
348.3854359824304,42540.51000791016,41997.10479325294,43053.96628071745
356.5003752534963,42561.183648428174,42022.876042454125,43070.887412333344
364.80433574236196,42580.92791988819,42047.48912953916,43087.04769242162
373.3017203187944,42599.784553151374,42070.99602560224,43102.48130065195
381.99703440857235,42617.79340961774,42093.44637656185,43117.22088409148
390.89488838232216,42634.992564578424,42114.887606549724,43131.29762566889
399.99999999999784,42651.41838688827,42135.365016762364,43144.74130960359
409.31719691229944,42667.1056151177,42154.92187996862,43157.58038393236
418.8514192203575,42682.08743033625,42173.59953085901,43169.84202026046
428.6077220950402,42696.39552567391,42191.43745241512,43181.55217085812
438.5912784572715,42710.06017280053,42208.47335846997,43192.7356232193
448.8073817207828,42723.11028545719,42224.743272623775,43203.41605219355
459.26144859875046,42735.573480168656,42240.28160367237,43213.61606979789
469.9590219758091,42747.47613425963,42255.121217699285,43223.35727281059
480.90577384696235,42758.84344129308,42269.29350697653,43232.66028824454
492.1075083249497,42769.69946404365,42282.828455812385,43241.54481679377
503.5701647176639,42780.0671851143,42295.754703479506,43250.02967434246
