Frequency,Nominal,Min,Max
4,-124.44361003865399,-127.34077829339506,-121.3691632032143
4.093171969123016,-125.03050503692776,-127.94308581060115,-121.93243160486146
4.1885141922035976,-125.62032255996196,-128.5468976144104,-122.49994106515533
4.286077220950425,-126.21274168084211,-129.151854776981,-123.07142527500787
4.385912784572739,-126.80743114207324,-129.75759112334867,-123.6466054401958
4.4880738172078525,-127.40404990748397,-130.36373397602412,-124.22519056372906
4.5926144859875295,-128.00224775999627,-130.96990492723873,-124.8068777816911
4.699590219758116,-128.6016659419539,-131.5757206334551,-125.39135275194225
4.80905773846965,-129.20193783416525,-132.18079362637124,-125.97829009452212
4.921075083249525,-129.80268966931155,-132.78473313437078,-126.567353882047
5.035701647176667,-130.4035412748861,-133.38714590812813,-127.15819817782184
5.152998206772534,-131.00410684040497,-133.98763704389094,-127.75046761883792
5.273026954225627,-131.60399570321053,-134.58581079786225,-128.343798040269
5.395851530366613,-132.2028131468829,-135.1812713850654,-128.93781713751315
5.521537058411538,-132.8001612059526,-135.77362375607987,-129.53214516135074
5.650150178491016,-133.3956394704104,-136.3624743451307,-130.12639564125405
5.781759082983708,-133.9888458833304,-136.94743178315915,-130.72017613146338
5.916433552672827,-134.57937752484045,-137.5281075696758,-131.31308897402798
6.05424499374483,-135.16683137561952,-138.10411669746932,-131.90473207263858
6.195266475649922,-135.75080505314622,-138.67507822449176,-132.49469967079932
6.339572769844451,-136.33089751400345,-139.24061578757843,-133.08258312762234
6.4872403894357165,-136.90670971567639,-139.80035805297214,-133.66797168435716
6.638347629750239,-137.47784523147376,-140.3539390989749,-134.2504532146297
6.792974609846974,-138.04391081242622,-140.90099872638046,-134.82961495132616
6.951203314997498,-138.6045168902699,-141.44118269267943,-135.4050441830191
7.113117640155687,-139.15927801590848,-141.97414286633486,-135.97632891292852
7.278803434439928,-139.70781322802108,-142.49953729767805,-136.54305847346208
7.448348546651464,-140.2497463467864,-143.01703020324203,-137.10482408955906
7.621842871852983,-140.78470618795993,-143.52629186046056,-137.66121938421608
7.799378399032175,-141.31232669279575,-144.02699840981262,-138.21184081977964
7.981049259875512,-141.8322469695041,-144.51883156146957,-138.75628806880957
8.16695177867811,-142.34411124211988,-145.00147820344873,-139.2941643085183
8.35718452341615,-142.84756870272648,-145.47462990806537,-139.82507643301662
8.55184835800892,-143.3422732630165,-145.95546995331446,-140.34863517775872
8.751046495798201,-143.8278832010859,-146.4294721280556,-140.86445515073265
8.954884554273349,-144.30406069917066,-146.89379247093004,-141.37215476502482
9.163470611071082,-144.7704712677388,-147.34815890364888,-141.86944983906832
9.376915261279677,-145.22678305088343,-147.79230288957694,-142.33951483608527
9.59533167607795,-145.6726660073649,-148.22595855446045,-142.79954333487484
9.81883566274011,-146.10779096085037,-148.64886169736573,-143.2491407409252
10.047545726038308,-146.5318285119035,-149.06074868608496,-143.6879114424619
10.281583131075442,-146.94444780304448,-149.46135523005458,-144.1154576968788
10.521071967581513,-147.3453151267008,-149.85041502240807,-144.53137834282586
10.766139215707648,-147.73409236407505,-150.22765824106733,-144.93526732475772
11.01691481335265,-148.110435240796,-150.59280989680826,-145.32671201471132
11.273531725057799,-148.47399138267093,-150.9455880138606,-145.70529131365282
11.536126012506406,-148.8243981518249,-151.28570162586507,-146.07057351179992
11.804836906665525,-149.16128023994665,-151.61284856678208,-146.42211388384035
12.079806881608047,-149.48424699111337,-151.9267130325365,-146.75945199082682
12.361181730054343,-149.79288942169154,-152.22696288474842,-147.0821086556026
12.649110640673497,-150.08677689888404,-152.51324666260192,-147.389582572768
12.94374627718511,-150.36545343248088,-152.78519026271366,-147.68134650725878
13.245244859303622,-150.62843352604943,-153.04239323945146,-147.95684302735526
13.55376624556808,-150.87519752385316,-153.28442466937796,-148.21547970812082
13.869474018101242,-151.10518637792913,-153.510818512979,-148.4566237295235
14.192535569342994,-151.31779574550512,-153.72106839424566,-148.67959577948506
14.523122190804028,-151.51236930981634,-153.91462170349158,-148.8836631552486
14.861409163886874,-151.6881911966529,-154.0908729104504,-149.06803193619498
15.20757585282242,-151.8444773338876,-154.24915595240316,-149.23183807677813
15.561805799771195,-151.9803655706402,-154.38873553492635,-149.3741372385888
15.924286822139859,-152.09490433537306,-154.50879714955155,-149.49389314452878
16.295211112164477,-152.18703956631506,-154.60843557168508,-149.58996419406498
16.674775338813383,-152.25559959103694,-154.68664155149702,-149.66108802466425
17.063180752063673,-152.29927756194988,-154.74228634762466,-149.70586363825737
17.460633289606605,-152.3166109673351,-154.7741036750475,-149.72273062980727
17.867343686038488,-152.3059576286553,-154.7806685400851,-149.7099449537786
18.283527584594964,-152.2654674582279,-154.76037231137127,-149.66555053835094
18.709405651487888,-152.1930490790426,-154.7113932184492,-149.58734590004244
19.145203692905493,-152.08633019026936,-154.6316612692931,-149.4728447145733
19.591152774737807,-151.94261028432547,-154.51881632150477,-149.31922905249172
20.04748934509085,-151.7588039665182,-154.3701577114392,-149.1232936764734
20.51445535965455,-151.53137267288747,-154.18258341752545,-148.88137940357905
20.99229840999086,-151.2562419951815,-153.9525161766784,-148.58929303773155
21.481271854810064,-150.92870106348644,-153.67581324288403,-148.24221074705972
21.981634954304933,-150.54327945404765,-153.34765551651162,-147.83456096287065
22.49365300761391,-150.0935958138283,-152.96241050252567,-146.97401623491746
23.017597493486225,-149.57217073722987,-152.51346186860383,-145.98414220455712
23.553746214223505,-148.97019428665615,-151.9929961262459,-144.84631394500573
24.102383442974254,-148.27723579179195,-151.4326472387216,-143.53637738873215
24.66380007445923,-147.48088006257575,-150.91242277235304,-142.02490131526037
25.23829377920767,-146.56626981090793,-150.31171389925805,-140.27589909083449
25.826169161386158,-145.51552892315053,-149.61978482944053,-138.24529229319722
26.427737920303777,-144.30703561310128,-148.9781121017213,-135.87915491384732
27.043319015679206,-142.9145095259216,-148.28624187805218,-133.1119055675247
27.673238836757392,-141.30587532333124,-147.49112628629618,-129.86488819792186
28.317831375365447,-139.44187337597802,-146.57793816004397,-126.04631181455078
28.97743840299953,-137.274419073654,-145.5288386489083,-121.55444213240256
29.652409652036628,-134.7447924203662,-144.32225220671617,-116.28726887682598
30.343103001167275,-131.78191936675015,-142.93195593535546,-110.1630544002825
31.04988466514759,-128.3013734856175,-141.32594578758287,-103.15517341196184
31.773129388971178,-124.20640996162217,-139.46505006190375,-95.33752838776853
32.51322064656389,-119.3934578128535,-137.3012911362071,-86.92127516869418
33.27055084410676,-113.76589308889402,-134.77607576938988,-78.24955350786063
34.04552152809497,-107.2605330478436,-131.81847257378683,-69.72962493980138
34.838543598243135,-99.8882123410081,-128.3441996951241,-61.728335354645154
35.650037525349724,-91.77892339973103,-124.25662485580507,-54.491130933841454
36.48043357423629,-83.20475957904519,-119.45218911967407,-48.122355760784444
37.330172031879535,-74.54807772379719,-113.83406295634106,-42.61513809748121
38.19970344085733,-66.2116533753881,-107.338481454259,-37.89718603488279
39.08948883823231,-58.51683379359113,-99.97519122849228,-33.86894814986534
39.99999999999988,-51.647267262334736,-91.87266158305866,-30.42739947143215
40.93171969123004,-45.65418008068881,-83.30147441484887,-27.47788667954992
41.88514192203586,-40.49709894350458,-74.64320198301772,-24.93851915118534
42.86077220950413,-36.08817091596411,-66.3010216178209,-22.740669517355933
43.859127845727265,-32.324230677186755,-58.59763467319276,-20.827763760985025
44.880738172078395,-29.104926382334085,-51.71829503512215,-19.153511656640976
45.926144859875166,-26.340837469183818,-45.71550272956994,-17.680116229168398
46.99590219758103,-23.955842621493886,-40.54953437280409,-16.376678305890863
48.09057738469636,-21.886688866476675,-36.13284873627891,-15.217856869416632
49.2107508324951,-20.081444084790483,-32.36231945821568,-14.182778115177197
50.35701647176652,-18.49767615619138,-29.13749837884049,-13.25416108653633
51.529982067725186,-17.10073142414361,-26.368818894682793,-12.417622232760019
52.7302695422561,-15.86224692811155,-23.98000836807337,-11.661123763343387
53.958515303665955,-14.758920499876723,-21.907676635190704,-10.974535899511803
55.2153705841152,-13.771517347730176,-20.09977477322621,-10.349288701630966
56.50150178490997,-12.884077090023952,-18.513774382179285,-9.778094161944242
57.81759082983689,-12.083284086194718,-17.114943753310367,-9.254723428003125
59.16433552672808,-11.35796803365665,-15.874857140109464,-8.773827370935994
60.542449937448104,-10.69870735735714,-14.770161993712533,-8.330791342339596
61.952664756499026,-10.09751331618317,-13.781583065380259,-7.9216170050951895
63.395727698444304,-9.547577414023669,-12.893127395640525,-7.542825699351763
64.87240389435695,-9.043068514863128,-12.091453006059439,-7.191379018905119
66.38347629750217,-8.57896908568525,-11.365368200307492,-6.864613208570501
67.92974609846951,-8.150942352148924,-10.705433936395945,-6.5601847151194885
69.51203314997474,-7.755223979609617,-10.103647136361499,-6.276024783169307
71.13117640155663,-7.388533301096964,-9.553187473145513,-6.01030142145574
72.78803434439905,-7.048000199123322,-9.048213995625414,-5.7613874033784755
74.48348546651441,-6.731104584888374,-8.583700985484793,-5.527833230745627
76.2184287185296,-6.435626064958369,-8.155304807570124,-5.3083441981027715
77.99378399032152,-6.159601886621757,-7.759255348342143,-5.101760859725903
79.81049259875488,-5.901291642994887,-7.392267050217547,-4.907042332062135
81.66951778678086,-5.6591475235059905,-7.051465638044638,-4.72325196859893
83.57184523416126,-5.431789134323207,-6.7343274730855445,-4.549545027577362
85.51848358008895,-5.217982101580904,-6.438629118248902,-4.3851580200674825
87.51046495798177,-5.016619819305959,-6.162405200861389,-4.229399480122661
89.54884554273323,-4.826707822460783,-5.903913050223917,-4.0816419426908
91.63470611071055,-4.64735036018062,-5.661602892587066,-3.9413149507621528
93.7691526127965,-4.477738820224558,-5.4340926257586695,-3.8078989425083907
95.95331676077923,-4.317141716848819,-5.220146384341392,-3.680919893196947
98.18835662740081,-4.164896003824162,-5.018656256029407,-3.5599446064631635
100.47545726038278,-4.02039951454889,-4.828626628208742,-3.4445765658955847
102.81583131075412,-3.8831043640306744,-4.649160739000275,-3.334452271476407
105.21071967581483,-3.752511174391791,-4.479449083011305,-3.229237996733984
107.66139215707616,-3.6281640076536408,-4.318759383395823,-3.1286269119173853
110.16914813352618,-3.509645907795511,-4.166427891451911,-3.03233652642731
112.73531725057767,-3.3965749691879914,-4.021851815306971,-2.9401064104004297
115.36126012506374,-3.2886008610562247,-3.8844827121357812,-2.8516961609639906
118.04836906665491,-3.1854017480975556,-3.7538207052971706,-2.766883583430921
120.79806881608012,-3.0866815561384233,-3.629409409923759,-2.6854630617385884
123.61181730054308,-2.9921675390676366,-3.5108314687767965,-2.6072440958642695
126.49110640673462,-2.901608109474051,-3.397704615314645,-2.5320499868770647
129.43746277185073,-2.8147709006444934,-3.2896781935038684,-2.459716652787791
132.45244859303585,-2.731441032005621,-3.1864300743921996,-2.3900915605040534
135.53766245568042,-2.6514195538538714,-3.0876639182395382,-2.3230327610416612
138.69474018101204,-2.5745220504208643,-2.9931067383703267,-2.2584080167320346
141.92535569342954,-2.5005773830562754,-2.9025067291124085,-2.196094010537268
145.23122190803988,-2.4294265576518654,-2.815631325425623,-2.1359756287716967
148.61409163886833,-2.3609217024402485,-2.732265466258623,-2.077945309558788
152.0757585282238,-2.2949251440307084,-2.652210037440373,-2.0219024502472087
155.61805799771153,-2.2313085710357554,-2.575280473120842,-1.9677528677900655
159.24286822139817,-2.1699522759311924,-2.501305497515242,-1.9154083067714494
162.95211112164435,-2.110744466908664,-2.430125991051913,-1.8647859903599728
166.7477533881334,-2.0535806424496608,-2.3615939670365007,-1.8158082099903796
170.63180752063627,-1.9983630221928492,-2.295571646677662,-1.768401950032085
174.60633289606557,-1.945000028402461,-2.231930621812508,-1.7224985441062217
178.6734368603844,-1.8934058129873224,-2.170551095961313,-1.6780333600673136
182.83527584594916,-1.8434998255827728,-2.1113211954594595,-1.634945510978992
187.0940565148784,-1.7952064187004169,-2.05413634338519,-1.593177589689536
191.45203692905443,-1.7484544863839555,-1.9988986898469159,-1.5526754248582808
195.91152774737753,-1.703177133190475,-1.9455165929298373,-1.5133878565012824
200.47489345090793,-1.659311370652732,-1.8939041452452199,-1.4752665293172726
205.14455359654494,-1.6167978386746962,-1.8439807415887064,-1.4382657022271104
209.922984099908,-1.5755805495752295,-1.7956706837074778,-1.4023420727125755
214.81271854810004,-1.535606652727443,-1.7489028186101856,-1.3674546146768927
219.81634954304874,-1.4968262179477374,-1.7036102072350885,-1.3335644286713717
224.93653007613852,-1.459192035971989,-1.6597298206284827,-1.3006346034416754
230.17597493486164,-1.4226594345198214,-1.617202261082553,-1.268630087844736
235.53746214223443,-1.3871861085932875,-1.5759715059450266,-1.2375175722753768
241.0238344297419,-1.3527319637867032,-1.535984672045594,-1.2072653788199639
246.63800074459164,-1.3192589715000835,-1.497191798891036,-1.1778433594258302
252.38293779207604,-1.2867310350530894,-1.4595456489646859,-1.1492228014383294
258.2616916138609,-1.255113865789467,-1.4230015236293998,-1.1213763399154228
264.277379203037,-1.2243748683456552,-1.387517093278965,-1.0942778761811585
270.4331901567913,-1.194483034332586,-1.3530522405132048,-1.0679025021266004
276.73238836757315,-1.1654088437472276,-1.3195689152281853,-1.0422264298088626
283.1783137536537,-1.1371241734914794,-1.2870310006172931,-1.0172269259375923
289.7743840299945,-1.1096022124311014,-1.2554041891721257,-0.9928822508727658
296.52409652036545,-1.0828173824768397,-1.2246558678562043,-0.9691716017894723
303.4310300116719,-1.0567452652149514,-1.1947550116995629,-0.9460750596938068
310.49884665147505,-1.0313625336549188,-1.1656720851300686,-0.9235735400003084
317.7312938897109,-1.006646888698746,-1.137378950418759,-0.9016487464048659
325.132206465638,-0.9825769999701056,-1.10984878267082,-0.8802831278088404
332.7055084410666,-0.9591324506711902,-1.0830559908442585,-0.8594598380696138
340.4552152809488,-0.9362936861632902,-1.0569761443228565,-0.8391626983709402
348.3854359824304,-0.9140419659917008,-1.031585904610665,-0.819376162022875
356.5003752534963,-0.8923593190986693,-1.0068629617523688,-0.8000852815158349
364.80433574236196,-0.8712285019885534,-0.9827859751170533,-0.7812756776673582
373.3017203187944,-0.85063295962861,-0.9593345182132288,-0.7629335107124439
381.99703440857235,-0.830556788885786,-0.9364890272306312,-0.7450454532000553
390.89488838232216,-0.8109847043159717,-0.9142307530293391,-0.7275986645686973
399.99999999999784,-0.7919020061364138,-0.8925417163195157,-0.7105807672838855
409.31719691229944,-0.7732945502252644,-0.8714046657958214,-0.6939798244289072
418.8514192203575,-0.7551487200042305,-0.8508030390096436,-0.6777843186488036
428.6077220950402,-0.7374514000715736,-0.8307209257795141,-0.661983132354574
438.5912784572715,-0.7201899514626826,-0.8111430339557392,-0.6465655291019344
448.8073817207828,-0.7033521884248293,-0.7920546573700492,-0.6315211360648749
459.26144859875046,-0.6869263566011413,-0.7734416458139046,-0.6168399275304501
469.9590219758091,-0.6709011125271103,-0.7552903769014877,-0.602512209346425
480.90577384696235,-0.65526550434952,-0.737587729684357,-0.5885286042584055
492.1075083249497,-0.6400089536850199,-0.7203210598948903,-0.574880038077709
503.5701647176639,-0.6251212385411045,-0.7034781767051977,-0.5615577266253539
